arc_length_s	gamma_x(s)	gamma_y(s)	gamma_z(s)	v_x(s)	v_y(s)	v_z(s)
0		6		0		1.2		0.000976108		0.999989		0.00042107
0.02		6.00002		0.0199998		1.20001		0.000947024		0.999989		0.000408446
0.04		6.00004		0.0399996		1.20002		0.000859771		0.999989		0.000370572
0.06		6.00005		0.0599994		1.20002		0.000714349		0.99999		0.00030745
0.08		6.00007		0.0799992		1.20003		0.000510758		0.99999		0.000219078
0.1		6.00007		0.099999		1.20003		0.000248999		0.999991		0.000105458
0.12		6.00008		0.119999		1.20003		-7.09298e-05		0.999992		-3.34114e-05
0.14		6.00007		0.139999		1.20003		-0.000449027		0.999993		-0.00019753
0.16		6.00006		0.159999		1.20002		-0.000885293		0.999994		-0.000386897
0.18		6.00003		0.179998		1.20001		-0.00137973		0.999995		-0.000601514
0.2		6		0.199998		1.2		-0.00193233		0.999997		-0.000841379
0.22		5.99996		0.219998		1.19998		-0.0025431		0.999998		-0.00110649
0.24		5.9999		0.239998		1.19996		-0.00321204		1		-0.00139686
0.26		5.99983		0.259998		1.19992		-0.00393915		1		-0.00171247
0.28		5.99974		0.279998		1.19989		-0.00472443		1		-0.00205333
0.3		5.99964		0.299998		1.19984		-0.00556788		1.00001		-0.00241944
0.32		5.99952		0.319999		1.19979		-0.0064695		1.00001		-0.0028108
0.34		5.99938		0.339999		1.19973		-0.00743165		1.00001		-0.00322829
0.36		5.99922		0.359999		1.19966		-0.00852561		1.00001		-0.00369835
0.38		5.99904		0.379999		1.19958		-0.00978473		0.999993		-0.00423338
0.4		5.99883		0.399999		1.19949		-0.011209		0.999971		-0.00483337
0.42		5.99859		0.419998		1.19939		-0.0127985		0.99994		-0.00549831
0.44		5.99831		0.439996		1.19927		-0.0145531		0.9999		-0.00622821
0.46		5.998		0.459994		1.19914		-0.0164728		0.999851		-0.00702307
0.48		5.99765		0.47999		1.19899		-0.0185577		0.999792		-0.00788289
0.5		5.99726		0.499985		1.19882		-0.0208078		0.999725		-0.00880767
0.52		5.99682		0.519979		1.19864		-0.0232231		0.999649		-0.0097974
0.54		5.99633		0.539971		1.19843		-0.0258035		0.999563		-0.0108521
0.56		5.99579		0.559961		1.1982		-0.028549		0.999469		-0.0119717
0.58		5.99519		0.57995		1.19795		-0.0314597		0.999365		-0.0131564
0.6		5.99453		0.599936		1.19768		-0.0345356		0.999253		-0.0144059
0.62		5.99381		0.61992		1.19737		-0.0377767		0.999131		-0.0157205
0.64		5.99302		0.639901		1.19705		-0.0411829		0.999		-0.0170999
0.66		5.99216		0.65988		1.19669		-0.0447542		0.99886		-0.0185444
0.68		5.99122		0.679856		1.1963		-0.048492		0.998708		-0.0200532
0.7		5.99022		0.699828		1.19589		-0.0524067		0.998514		-0.0216211
0.72		5.98913		0.719796		1.19544		-0.0565007		0.998271		-0.023247
0.74		5.98795		0.739758		1.19496		-0.0607741		0.99798		-0.0249308
0.76		5.9867		0.759715		1.19444		-0.0652268		0.99764		-0.0266726
0.78		5.98534		0.779664		1.19389		-0.0698588		0.997251		-0.0284724
0.8		5.9839		0.799604		1.1933		-0.0746701		0.996814		-0.0303301
0.82		5.98236		0.819536		1.19268		-0.0796607		0.996328		-0.0322458
0.84		5.98071		0.839457		1.19201		-0.0848307		0.995794		-0.0342194
0.86		5.97896		0.859367		1.19131		-0.09018		0.995211		-0.036251
0.88		5.9771		0.879265		1.19056		-0.0957086		0.99458		-0.0383406
0.9		5.97513		0.89915		1.18977		-0.101417		0.9939		-0.0404881
0.92		5.97305		0.919021		1.18894		-0.107304		0.993171		-0.0426936
0.94		5.97084		0.938877		1.18806		-0.11337		0.992394		-0.044957
0.96		5.96851		0.958716		1.18714		-0.119616		0.991568		-0.0472784
0.98		5.96605		0.978539		1.18617		-0.126041		0.990694		-0.0496578
1		5.96347		0.998344		1.18516		-0.132646		0.989771		-0.0520951
1.02		5.96075		1.01813		1.18409		-0.139418		0.988789		-0.0545826
1.04		5.95789		1.03789		1.18297		-0.146312		0.98771		-0.0570919
1.06		5.95489		1.05764		1.18181		-0.153326		0.986531		-0.0596201
1.08		5.95176		1.07736		1.18059		-0.160458		0.985252		-0.0621675
1.1		5.94847		1.09705		1.17932		-0.167709		0.983871		-0.0647339
1.12		5.94505		1.11671		1.178		-0.175079		0.982391		-0.0673193
1.14		5.94147		1.13634		1.17663		-0.182568		0.98081		-0.0699238
1.16		5.93774		1.15594		1.1752		-0.190175		0.979128		-0.0725474
1.18		5.93386		1.17551		1.17372		-0.197902		0.977347		-0.07519
1.2		5.92983		1.19503		1.17219		-0.205747		0.975464		-0.0778516
1.22		5.92563		1.21452		1.17061		-0.21371		0.973481		-0.0805323
1.24		5.92128		1.23397		1.16897		-0.221793		0.971398		-0.0832321
1.26		5.91676		1.25338		1.16728		-0.229994		0.969215		-0.0859509
1.28		5.91208		1.27274		1.16553		-0.238315		0.96693		-0.0886888
1.3		5.90723		1.29206		1.16373		-0.246754		0.964546		-0.0914457
1.32		5.90221		1.31132		1.16188		-0.255312		0.962061		-0.0942217
1.34		5.89701		1.33054		1.15996		-0.263988		0.959475		-0.0970167
1.36		5.89165		1.3497		1.15799		-0.272738		0.95679		-0.0998106
1.38		5.8861		1.36881		1.15597		-0.281479		0.954008		-0.102567
1.4		5.88039		1.38786		1.15389		-0.290211		0.951129		-0.105286
1.42		5.87449		1.40685		1.15176		-0.298933		0.948152		-0.107967
1.44		5.86843		1.42579		1.14957		-0.307644		0.945079		-0.110609
1.46		5.86219		1.44466		1.14734		-0.316346		0.941907		-0.113214
1.48		5.85578		1.46346		1.14505		-0.325038		0.938639		-0.115781
1.5		5.84919		1.4822		1.1427		-0.33372		0.935273		-0.11831
1.52		5.84243		1.50087		1.14031		-0.342391		0.93181		-0.120801
1.54		5.83549		1.51947		1.13787		-0.351053		0.92825		-0.123254
1.56		5.82838		1.538		1.13538		-0.359706		0.924593		-0.125669
1.58		5.8211		1.55646		1.13285		-0.368348		0.920838		-0.128046
1.6		5.81365		1.57483		1.13026		-0.37698		0.916986		-0.130385
1.62		5.80602		1.59313		1.12763		-0.385602		0.913037		-0.132686
1.64		5.79823		1.61135		1.12495		-0.394214		0.908991		-0.13495
1.66		5.79026		1.62949		1.12223		-0.402817		0.904847		-0.137175
1.68		5.78211		1.64755		1.11947		-0.411409		0.900606		-0.139362
1.7		5.7738		1.66552		1.11666		-0.419941		0.896305		-0.141495
1.72		5.76532		1.6834		1.11381		-0.428373		0.891971		-0.143561
1.74		5.75667		1.7012		1.11092		-0.436703		0.887607		-0.14556
1.76		5.74785		1.7189		1.10799		-0.444933		0.883211		-0.147491
1.78		5.73887		1.73652		1.10502		-0.453062		0.878784		-0.149355
1.8		5.72973		1.75405		1.10201		-0.46109		0.874325		-0.151152
1.82		5.72043		1.7715		1.09897		-0.469017		0.869835		-0.152881
1.84		5.71097		1.78885		1.0959		-0.476843		0.865314		-0.154544
1.86		5.70135		1.80611		1.09279		-0.484569		0.860762		-0.156139
1.88		5.69159		1.82328		1.08965		-0.492193		0.856178		-0.157666
1.9		5.68167		1.84036		1.08648		-0.499717		0.851562		-0.159127
1.92		5.6716		1.85734		1.08329		-0.50714		0.846916		-0.16052
1.94		5.66138		1.87423		1.08006		-0.514462		0.842238		-0.161846
1.96		5.65102		1.89103		1.07681		-0.521683		0.837529		-0.163104
1.98		5.64051		1.90773		1.07354		-0.528803		0.832788		-0.164295
2		5.62987		1.92434		1.07024		-0.535822		0.828016		-0.165419
2.02		5.61908		1.94085		1.06692		-0.54274		0.823214		-0.166476
2.04		5.60816		1.95727		1.06358		-0.549551		0.818423		-0.16747
2.06		5.5971		1.97359		1.06023		-0.55625		0.813657		-0.168401
2.08		5.58591		1.98982		1.05685		-0.562839		0.808917		-0.16927
2.1		5.57459		2.00595		1.05346		-0.569317		0.804202		-0.170077
2.12		5.56314		2.02198		1.05005		-0.575684		0.799513		-0.170821
2.14		5.55156		2.03793		1.04662		-0.581941		0.794849		-0.171504
2.16		5.53986		2.05378		1.04319		-0.588087		0.790211		-0.172124
2.18		5.52804		2.06954		1.03974		-0.594122		0.785598		-0.172683
2.2		5.5161		2.0852		1.03628		-0.600046		0.781011		-0.173179
2.22		5.50404		2.10078		1.03281		-0.60586		0.77645		-0.173612
2.24		5.49186		2.11626		1.02934		-0.611563		0.771914		-0.173984
2.26		5.47958		2.13165		1.02585		-0.617155		0.767403		-0.174294
2.28		5.46718		2.14696		1.02236		-0.622637		0.762918		-0.174541
2.3		5.45467		2.16217		1.01887		-0.628008		0.758459		-0.174726
2.32		5.44206		2.1773		1.01538		-0.633268		0.754025		-0.174849
2.34		5.42934		2.19233		1.01188		-0.638418		0.749616		-0.17491
2.36		5.41652		2.20728		1.00838		-0.643459		0.745235		-0.17491
2.38		5.4036		2.22214		1.00488		-0.648412		0.740897		-0.174861
2.4		5.39059		2.23692		1.00139		-0.653279		0.736604		-0.174765
2.42		5.37747		2.25161		0.997892		-0.658061		0.732356		-0.174622
2.44		5.36426		2.26621		0.994401		-0.662758		0.728153		-0.174431
2.46		5.35096		2.28073		0.990915		-0.66737		0.723995		-0.174193
2.48		5.33757		2.29517		0.987434		-0.671896		0.719883		-0.173908
2.5		5.32409		2.30953		0.983959		-0.676336		0.715816		-0.173576
2.52		5.31052		2.3238		0.980491		-0.680691		0.711793		-0.173197
2.54		5.29686		2.338		0.977031		-0.684961		0.707816		-0.17277
2.56		5.28312		2.35212		0.973581		-0.689146		0.703885		-0.172296
2.58		5.2693		2.36616		0.97014		-0.693245		0.699998		-0.171775
2.6		5.25539		2.38012		0.96671		-0.697259		0.696156		-0.171206
2.62		5.24141		2.394		0.963292		-0.701187		0.69236		-0.170591
2.64		5.22734		2.40781		0.959887		-0.705031		0.688609		-0.169928
2.66		5.21321		2.42155		0.956495		-0.708788		0.684903		-0.169218
2.68		5.19899		2.43521		0.953118		-0.712461		0.681242		-0.168461
2.7		5.18471		2.4488		0.949757		-0.716054		0.677626		-0.167659
2.72		5.17035		2.46231		0.946412		-0.719587		0.674054		-0.166821
2.74		5.15592		2.47576		0.943084		-0.72306		0.670527		-0.165948
2.76		5.14143		2.48914		0.939774		-0.726474		0.667043		-0.165039
2.78		5.12687		2.50244		0.936483		-0.729829		0.663603		-0.164095
2.8		5.11224		2.51568		0.933211		-0.733124		0.660208		-0.163115
2.82		5.09754		2.52885		0.929959		-0.736361		0.656856		-0.1621
2.84		5.08278		2.54195		0.926727		-0.739538		0.653549		-0.16105
2.86		5.06796		2.55499		0.923517		-0.742656		0.650286		-0.159964
2.88		5.05308		2.56797		0.920329		-0.745714		0.647067		-0.158842
2.9		5.03813		2.58088		0.917163		-0.748714		0.643891		-0.157686
2.92		5.02313		2.59372		0.914022		-0.751654		0.64076		-0.156493
2.94		5.00807		2.60651		0.910904		-0.754535		0.637674		-0.155265
2.96		4.99295		2.61923		0.907811		-0.757357		0.634631		-0.154002
2.98		4.97777		2.63189		0.904744		-0.760119		0.631632		-0.152704
3		4.96254		2.6445		0.901703		-0.762822		0.628677		-0.151369
3.02		4.94726		2.65704		0.89869		-0.765466		0.625767		-0.15
3.04		4.93192		2.66953		0.895704		-0.768058		0.622897		-0.148598
3.06		4.91654		2.68196		0.892746		-0.770609		0.620064		-0.147167
3.08		4.9011		2.69433		0.889817		-0.77312		0.617267		-0.145708
3.1		4.88561		2.70665		0.886918		-0.77559		0.614506		-0.14422
3.12		4.87008		2.71891		0.884048		-0.77802		0.611782		-0.142704
3.14		4.85449		2.73112		0.88121		-0.780409		0.609095		-0.14116
3.16		4.83886		2.74327		0.878402		-0.782757		0.606443		-0.139587
3.18		4.82318		2.75538		0.875626		-0.785064		0.603828		-0.137986
3.2		4.80746		2.76743		0.872883		-0.787331		0.601249		-0.136357
3.22		4.79169		2.77943		0.870172		-0.789558		0.598707		-0.134699
3.24		4.77588		2.79138		0.867495		-0.791743		0.596201		-0.133012
3.26		4.76002		2.80327		0.864852		-0.793889		0.593732		-0.131297
3.28		4.74412		2.81512		0.862244		-0.795993		0.591299		-0.129554
3.3		4.72818		2.82693		0.85967		-0.798057		0.588902		-0.127782
3.32		4.7122		2.83868		0.857132		-0.80008		0.586541		-0.125982
3.34		4.69618		2.85039		0.854631		-0.802063		0.584217		-0.124154
3.36		4.68012		2.86205		0.852166		-0.804005		0.581929		-0.122297
3.38		4.66402		2.87367		0.849739		-0.805913		0.579673		-0.120414
3.4		4.64788		2.88524		0.84735		-0.807791		0.577443		-0.118506
3.42		4.63171		2.89676		0.844999		-0.80964		0.575241		-0.116573
3.44		4.6155		2.90825		0.842687		-0.81146		0.573067		-0.114616
3.46		4.59925		2.91969		0.840415		-0.81325		0.57092		-0.112634
3.48		4.58297		2.93108		0.838182		-0.81501		0.5688		-0.110627
3.5		4.56665		2.94244		0.83599		-0.816741		0.566708		-0.108596
3.52		4.5503		2.95375		0.833838		-0.818442		0.564644		-0.106539
3.54		4.53391		2.96502		0.831728		-0.820114		0.562606		-0.104458
3.56		4.51749		2.97626		0.82966		-0.821756		0.560597		-0.102353
3.58		4.50104		2.98745		0.827634		-0.823369		0.558614		-0.100222
3.6		4.48456		2.9986		0.825652		-0.824952		0.556659		-0.098067
3.62		4.46804		3.00972		0.823712		-0.826506		0.554732		-0.0958871
3.64		4.4515		3.02079		0.821816		-0.82803		0.552832		-0.0936825
3.66		4.43492		3.03183		0.819965		-0.829524		0.550959		-0.0914531
3.68		4.41832		3.04283		0.818158		-0.830989		0.549114		-0.0891989
3.7		4.40168		3.05379		0.816397		-0.832425		0.547296		-0.0869202
3.72		4.38502		3.06472		0.814682		-0.833837		0.545499		-0.0846182
3.74		4.36833		3.07561		0.813012		-0.835226		0.543722		-0.0822937
3.76		4.35161		3.08647		0.81139		-0.836592		0.541965		-0.0799464
3.78		4.33487		3.09729		0.809815		-0.837936		0.540228		-0.0775766
3.8		4.31809		3.10808		0.808287		-0.839256		0.53851		-0.075184
3.82		4.3013		3.11883		0.806808		-0.840555		0.536812		-0.0727688
3.84		4.28447		3.12955		0.805377		-0.84183		0.535134		-0.0703309
3.86		4.26762		3.14024		0.803994		-0.843083		0.533476		-0.0678704
3.88		4.25075		3.15089		0.802662		-0.844314		0.531837		-0.0653872
3.9		4.23385		3.16151		0.801379		-0.845521		0.530218		-0.0628814
3.92		4.21693		3.1721		0.800147		-0.846706		0.528618		-0.0603529
3.94		4.19998		3.18266		0.798965		-0.847869		0.527039		-0.0578017
3.96		4.18301		3.19318		0.797835		-0.849008		0.525479		-0.0552279
3.98		4.16602		3.20368		0.796756		-0.850125		0.523939		-0.0526314
4		4.14901		3.21414		0.79573		-0.85122		0.522418		-0.0500123
4.02		4.13197		3.22457		0.794756		-0.852292		0.520918		-0.0473705
4.04		4.11492		3.23498		0.793835		-0.853341		0.519436		-0.0447063
4.06		4.09784		3.24535		0.792968		-0.854371		0.517967		-0.0420208
4.08		4.08074		3.2557		0.792154		-0.855381		0.516511		-0.0393142
4.1		4.06362		3.26601		0.791395		-0.856373		0.515068		-0.0365866
4.12		4.04649		3.2763		0.790691		-0.857344		0.513637		-0.0338379
4.14		4.02933		3.28656		0.790042		-0.858297		0.512219		-0.0310681
4.16		4.01216		3.29679		0.789448		-0.85923		0.510813		-0.0282772
4.18		3.99496		3.30699		0.788911		-0.860144		0.50942		-0.0254653
4.2		3.97775		3.31716		0.78843		-0.861038		0.508039		-0.0226322
4.22		3.96052		3.32731		0.788006		-0.861913		0.506671		-0.0197782
4.24		3.94327		3.33743		0.787639		-0.862769		0.505316		-0.016903
4.26		3.92601		3.34752		0.78733		-0.863605		0.503973		-0.0140067
4.28		3.90873		3.35759		0.787079		-0.864422		0.502643		-0.0110894
4.3		3.89143		3.36763		0.786886		-0.86522		0.501325		-0.00815101
4.32		3.87412		3.37764		0.786753		-0.865998		0.50002		-0.00519154
4.34		3.85679		3.38763		0.786679		-0.866757		0.498727		-0.00221099
4.36		3.83945		3.39759		0.786665		-0.867497		0.497447		0.000790642
4.38		3.82209		3.40753		0.786711		-0.868218		0.496178		0.00381275
4.4		3.80472		3.41744		0.786817		-0.868921		0.494916		0.00685382
4.42		3.78734		3.42732		0.786985		-0.869606		0.493659		0.00991376
4.44		3.76994		3.43719		0.787214		-0.870274		0.492409		0.0129926
4.46		3.75253		3.44702		0.787505		-0.870924		0.491165		0.0160903
4.48		3.7351		3.45683		0.787858		-0.871556		0.489927		0.0192069
4.5		3.71766		3.46662		0.788273		-0.872171		0.488696		0.0223423
4.52		3.70021		3.47638		0.788752		-0.872768		0.487471		0.0254967
4.54		3.68275		3.48612		0.789293		-0.873348		0.486252		0.0286699
4.56		3.66528		3.49583		0.789898		-0.873909		0.485039		0.031862
4.58		3.6478		3.50552		0.790568		-0.874453		0.483833		0.035073
4.6		3.6303		3.51518		0.791302		-0.87498		0.482633		0.0383029
4.62		3.6128		3.52482		0.7921		-0.875489		0.481439		0.0415516
4.64		3.59528		3.53444		0.792964		-0.87598		0.480251		0.0448193
4.66		3.57776		3.54403		0.793893		-0.876454		0.479069		0.0481058
4.68		3.56022		3.5536		0.794888		-0.876909		0.477894		0.0514112
4.7		3.54268		3.56315		0.795949		-0.877348		0.476725		0.0547354
4.72		3.52513		3.57267		0.797078		-0.877769		0.47556		0.058077
4.74		3.50757		3.58217		0.798273		-0.878172		0.474395		0.0614338
4.76		3.49		3.59165		0.799535		-0.87856		0.47323		0.064806
4.78		3.47243		3.6011		0.800865		-0.87893		0.472066		0.0681934
4.8		3.45485		3.61053		0.802263		-0.879283		0.470902		0.0715962
4.82		3.43726		3.61994		0.803729		-0.879619		0.469738		0.0750142
4.84		3.41966		3.62932		0.805264		-0.879938		0.468575		0.0784476
4.86		3.40206		3.63868		0.806867		-0.880241		0.467412		0.0818962
4.88		3.38445		3.64802		0.808539		-0.880526		0.46625		0.0853601
4.9		3.36684		3.65733		0.810281		-0.880795		0.465088		0.0888394
4.92		3.34922		3.66662		0.812093		-0.881046		0.463926		0.0923339
4.94		3.3316		3.67589		0.813975		-0.881281		0.462765		0.0958437
4.96		3.31397		3.68513		0.815927		-0.881499		0.461604		0.0993689
4.98		3.29634		3.69435		0.81795		-0.8817		0.460443		0.102909
5		3.2787		3.70355		0.820043		-0.881883		0.459283		0.106465
5.02		3.26106		3.71272		0.822208		-0.88205		0.458123		0.110036
5.04		3.24342		3.72187		0.824445		-0.8822		0.456963		0.113622
5.06		3.22578		3.731		0.826753		-0.882334		0.455801		0.11722
5.08		3.20813		3.74011		0.829134		-0.882451		0.454633		0.120828
5.1		3.19048		3.74919		0.831587		-0.882553		0.453461		0.124446
5.12		3.17283		3.75824		0.834112		-0.882638		0.452283		0.128074
5.14		3.15517		3.76728		0.83671		-0.882707		0.451101		0.131711
5.16		3.13752		3.77629		0.83938		-0.88276		0.449914		0.135358
5.18		3.11986		3.78528		0.842124		-0.882797		0.448722		0.139015
5.2		3.10221		3.79424		0.844941		-0.882818		0.447526		0.142682
5.22		3.08455		3.80318		0.847831		-0.882822		0.446324		0.146359
5.24		3.06689		3.81209		0.850795		-0.882811		0.445117		0.150046
5.26		3.04924		3.82098		0.853833		-0.882783		0.443906		0.153742
5.28		3.03158		3.82985		0.856945		-0.88274		0.44269		0.157448
5.3		3.01393		3.83869		0.860131		-0.88268		0.441469		0.161164
5.32		2.99627		3.84751		0.863392		-0.882604		0.440243		0.16489
5.34		2.97862		3.8563		0.866727		-0.882512		0.439012		0.168626
5.36		2.96097		3.86507		0.870137		-0.882403		0.437776		0.172372
5.38		2.94333		3.87381		0.873622		-0.882279		0.436535		0.176127
5.4		2.92568		3.88253		0.877182		-0.88214		0.435286		0.179886
5.42		2.90804		3.89122		0.880817		-0.881987		0.434027		0.183647
5.44		2.8904		3.89989		0.884528		-0.881819		0.432759		0.187411
5.46		2.87277		3.90853		0.888314		-0.881636		0.431482		0.191178
5.48		2.85514		3.91715		0.892175		-0.881439		0.430196		0.194947
5.5		2.83751		3.92574		0.896112		-0.881228		0.4289		0.198718
5.52		2.81989		3.9343		0.900124		-0.881002		0.427596		0.202492
5.54		2.80227		3.94284		0.904211		-0.880761		0.426282		0.206268
5.56		2.78466		3.95135		0.908375		-0.880506		0.424959		0.210047
5.58		2.76705		3.95984		0.912613		-0.880237		0.423626		0.213829
5.6		2.74945		3.9683		0.916928		-0.879953		0.422284		0.217613
5.62		2.73185		3.97673		0.921318		-0.879655		0.420933		0.221399
5.64		2.71426		3.98514		0.925784		-0.879342		0.419573		0.225188
5.66		2.69668		3.99351		0.930325		-0.879015		0.418204		0.228979
5.68		2.6791		4.00186		0.934943		-0.878673		0.416825		0.232773
5.7		2.66153		4.01019		0.939636		-0.878317		0.415437		0.23657
5.72		2.64397		4.01848		0.944406		-0.877946		0.414039		0.240367
5.74		2.62641		4.02675		0.949251		-0.877565		0.41263		0.244159
5.76		2.60887		4.03499		0.954172		-0.877171		0.411208		0.247945
5.78		2.59133		4.0432		0.959169		-0.876767		0.409773		0.251725
5.8		2.5738		4.05138		0.964241		-0.87635		0.408326		0.255499
5.82		2.55627		4.05953		0.969389		-0.875923		0.406867		0.259266
5.84		2.53876		4.06765		0.974612		-0.875484		0.405395		0.263028
5.86		2.52125		4.07575		0.97991		-0.875034		0.403911		0.266783
5.88		2.50376		4.08381		0.985283		-0.874572		0.402415		0.270532
5.9		2.48627		4.09184		0.990731		-0.874099		0.400906		0.274275
5.92		2.46879		4.09985		0.996254		-0.873614		0.399385		0.278012
5.94		2.45133		4.10782		1.00185		-0.873118		0.397851		0.281743
5.96		2.43387		4.11576		1.00752		-0.872611		0.396305		0.285468
5.98		2.41642		4.12367		1.01327		-0.872092		0.394747		0.289186
6		2.39899		4.13155		1.01909		-0.871562		0.393176		0.292898
6.02		2.38156		4.1394		1.02499		-0.871021		0.391593		0.296605
6.04		2.36415		4.14721		1.03096		-0.870468		0.389997		0.300305
6.06		2.34674		4.155		1.037		-0.869905		0.388389		0.303996
6.08		2.32935		4.16275		1.04311		-0.869335		0.386766		0.307673
6.1		2.31197		4.17047		1.0493		-0.868758		0.38513		0.311334
6.12		2.2946		4.17815		1.05557		-0.868174		0.383479		0.314981
6.14		2.27724		4.18581		1.0619		-0.867583		0.381814		0.318613
6.16		2.2599		4.19343		1.06831		-0.866986		0.380135		0.322229
6.18		2.24256		4.20101		1.07479		-0.866381		0.378442		0.325831
