arc_length_s	gamma_x(s)	gamma_y(s)	gamma_z(s)	v_x(s)	v_y(s)	v_z(s)
0		6		0		1.2		0.00072807		0.999996		0.000472547
0.02		6.00001		0.0199999		1.20001		0.000714166		0.999996		0.000462304
0.04		6.00003		0.0399998		1.20002		0.000672452		0.999996		0.000431577
0.06		6.00004		0.0599997		1.20003		0.000602929		0.999996		0.000380365
0.08		6.00005		0.0799997		1.20003		0.000505596		0.999996		0.000308668
0.1		6.00006		0.0999996		1.20004		0.000380454		0.999995		0.000216486
0.12		6.00007		0.119999		1.20004		0.000227504		0.999995		0.000103819
0.14		6.00007		0.139999		1.20004		4.67433e-05		0.999995		-2.93332e-05
0.16		6.00007		0.159999		1.20004		-0.000161826		0.999995		-0.00018297
0.18		6.00006		0.179999		1.20004		-0.000398205		0.999995		-0.000357092
0.2		6.00005		0.199999		1.20003		-0.000662393		0.999995		-0.000551698
0.22		6.00004		0.219999		1.20001		-0.00095439		0.999994		-0.000766789
0.24		6.00001		0.239999		1.2		-0.0012742		0.999994		-0.00100237
0.26		5.99999		0.259999		1.19997		-0.00162181		0.999994		-0.00125843
0.28		5.99995		0.279999		1.19994		-0.00199724		0.999993		-0.00153497
0.3		5.99991		0.299998		1.19991		-0.00240047		0.999993		-0.001832
0.32		5.99985		0.319998		1.19987		-0.00283152		0.999993		-0.00214952
0.34		5.99979		0.339998		1.19983		-0.00329037		0.999992		-0.00248752
0.36		5.99972		0.359998		1.19977		-0.00377703		0.999992		-0.00284601
0.38		5.99964		0.379998		1.19971		-0.0042915		0.999992		-0.00322498
0.4		5.99955		0.399998		1.19964		-0.00483378		0.999991		-0.00362443
0.42		5.99945		0.419997		1.19957		-0.00542242		0.99999		-0.00404349
0.44		5.99933		0.439997		1.19948		-0.00608255		0.999985		-0.00448095
0.46		5.9992		0.459997		1.19939		-0.0068143		0.999978		-0.00493681
0.48		5.99906		0.479996		1.19928		-0.00761769		0.999968		-0.00541106
0.5		5.9989		0.499996		1.19917		-0.00849271		0.999954		-0.00590371
0.52		5.99872		0.519994		1.19905		-0.00943935		0.999939		-0.00641475
0.54		5.99852		0.539993		1.19891		-0.0104576		0.99992		-0.0069442
0.56		5.9983		0.559991		1.19877		-0.0115475		0.999898		-0.00749204
0.58		5.99806		0.579989		1.19861		-0.0127091		0.999874		-0.00805827
0.6		5.99779		0.599986		1.19845		-0.0139422		0.999847		-0.00864291
0.62		5.9975		0.619983		1.19827		-0.015247		0.999817		-0.00924594
0.64		5.99718		0.639979		1.19808		-0.0166234		0.999784		-0.00986736
0.66		5.99683		0.659974		1.19787		-0.0180715		0.999748		-0.0105072
0.68		5.99646		0.679969		1.19766		-0.0195912		0.999709		-0.0111654
0.7		5.99605		0.699963		1.19743		-0.0211825		0.999668		-0.011842
0.72		5.99561		0.719955		1.19718		-0.0228454		0.999623		-0.012537
0.74		5.99514		0.739947		1.19692		-0.02458		0.999576		-0.0132504
0.76		5.99463		0.759938		1.19665		-0.0263862		0.999526		-0.0139823
0.78		5.99408		0.779928		1.19637		-0.028264		0.999473		-0.0147325
0.8		5.9935		0.799917		1.19606		-0.0302134		0.999417		-0.0155011
0.82		5.99287		0.819905		1.19575		-0.0322267		0.999356		-0.0162766
0.84		5.99221		0.839892		1.19541		-0.0342896		0.999286		-0.0170384
0.86		5.9915		0.859876		1.19506		-0.0364018		0.999206		-0.0177861
0.88		5.99075		0.87986		1.1947		-0.0385634		0.999117		-0.0185198
0.9		5.98996		0.899841		1.19432		-0.0407744		0.999018		-0.0192393
0.92		5.98912		0.91982		1.19393		-0.0430348		0.99891		-0.0199447
0.94		5.98823		0.939797		1.19353		-0.0453445		0.998792		-0.020636
0.96		5.9873		0.959772		1.19311		-0.0477037		0.998664		-0.0213132
0.98		5.98633		0.979744		1.19267		-0.0501121		0.998528		-0.0219763
1		5.9853		0.999713		1.19223		-0.05257		0.998381		-0.0226252
1.02		5.98422		1.01968		1.19177		-0.0550772		0.998225		-0.0232601
1.04		5.9831		1.03964		1.1913		-0.0576338		0.99806		-0.0238809
1.06		5.98192		1.0596		1.19081		-0.0602398		0.997885		-0.0244875
1.08		5.98069		1.07956		1.19032		-0.0628951		0.9977		-0.0250801
1.1		5.9794		1.09951		1.18981		-0.0655998		0.997506		-0.0256585
1.12		5.97806		1.11946		1.18929		-0.0683539		0.997303		-0.0262229
1.14		5.97667		1.1394		1.18876		-0.0711574		0.99709		-0.0267731
1.16		5.97521		1.15934		1.18822		-0.0740102		0.996868		-0.0273093
1.18		5.97371		1.17928		1.18767		-0.0769124		0.996636		-0.0278313
1.2		5.97214		1.19921		1.18711		-0.079864		0.996394		-0.0283392
1.22		5.97051		1.21913		1.18654		-0.0828592		0.996142		-0.0288309
1.24		5.96882		1.23905		1.18595		-0.0858847		0.995876		-0.0293017
1.26		5.96708		1.25897		1.18536		-0.0889398		0.995597		-0.0297512
1.28		5.96527		1.27888		1.18476		-0.0920246		0.995304		-0.0301795
1.3		5.96339		1.29878		1.18416		-0.095139		0.994998		-0.0305866
1.32		5.96146		1.31868		1.18354		-0.0982831		0.994678		-0.0309725
1.34		5.95946		1.33857		1.18292		-0.101457		0.994345		-0.0313372
1.36		5.9574		1.35845		1.18229		-0.10466		0.993997		-0.0316806
1.38		5.95528		1.37833		1.18165		-0.107893		0.993637		-0.0320029
1.4		5.95309		1.39819		1.18101		-0.111156		0.993262		-0.0323039
1.42		5.95083		1.41806		1.18036		-0.114448		0.992875		-0.0325837
1.44		5.94851		1.43791		1.1797		-0.11777		0.992473		-0.0328423
1.46		5.94612		1.45775		1.17904		-0.121122		0.992058		-0.0330797
1.48		5.94366		1.47759		1.17838		-0.124503		0.99163		-0.0332958
1.5		5.94114		1.49742		1.17771		-0.127914		0.991187		-0.0334908
1.52		5.93855		1.51724		1.17704		-0.131355		0.990732		-0.0336645
1.54		5.93588		1.53705		1.17637		-0.134825		0.990262		-0.033817
1.56		5.93315		1.55685		1.17569		-0.138325		0.989779		-0.0339483
1.58		5.93035		1.57664		1.17501		-0.141855		0.989283		-0.0340584
1.6		5.92748		1.59642		1.17433		-0.145414		0.988773		-0.0341472
1.62		5.92453		1.61619		1.17364		-0.149001		0.988248		-0.0342153
1.64		5.92152		1.63595		1.17296		-0.152611		0.987704		-0.0342637
1.66		5.91843		1.6557		1.17227		-0.156243		0.987142		-0.0342926
1.68		5.91527		1.67544		1.17159		-0.159896		0.98656		-0.0343019
1.7		5.91203		1.69516		1.1709		-0.163572		0.98596		-0.0342917
1.72		5.90872		1.71487		1.17022		-0.16727		0.985341		-0.0342619
1.74		5.90534		1.73457		1.16953		-0.17099		0.984702		-0.0342126
1.76		5.90189		1.75426		1.16885		-0.174732		0.984045		-0.0341438
1.78		5.89835		1.77394		1.16816		-0.178496		0.983369		-0.0340554
1.8		5.89475		1.7936		1.16748		-0.182282		0.982674		-0.0339474
1.82		5.89106		1.81324		1.16681		-0.18609		0.981961		-0.03382
1.84		5.8873		1.83288		1.16613		-0.189921		0.981228		-0.0336729
1.86		5.88346		1.85249		1.16546		-0.193773		0.980476		-0.0335064
1.88		5.87955		1.87209		1.16479		-0.197647		0.979705		-0.0333203
1.9		5.87556		1.89168		1.16413		-0.201544		0.978916		-0.0331146
1.92		5.87149		1.91125		1.16347		-0.205462		0.978107		-0.0328894
1.94		5.86734		1.9308		1.16281		-0.209403		0.97728		-0.0326447
1.96		5.86311		1.95034		1.16216		-0.213365		0.976434		-0.0323804
1.98		5.85881		1.96986		1.16152		-0.21735		0.975568		-0.0320966
2		5.85442		1.98936		1.16088		-0.221356		0.974684		-0.0317932
2.02		5.84995		2.00885		1.16025		-0.225385		0.97378		-0.0314709
2.04		5.8454		2.02832		1.15962		-0.229435		0.972851		-0.0311323
2.06		5.84077		2.04776		1.159		-0.233505		0.971897		-0.0307775
2.08		5.83606		2.06719		1.15839		-0.237596		0.970917		-0.0304066
2.1		5.83127		2.0866		1.15778		-0.241708		0.969912		-0.0300196
2.12		5.82639		2.10599		1.15719		-0.245841		0.968882		-0.0296165
2.14		5.82144		2.12535		1.1566		-0.249995		0.967827		-0.0291973
2.16		5.81639		2.1447		1.15602		-0.25417		0.966746		-0.028762
2.18		5.81127		2.16402		1.15545		-0.258366		0.96564		-0.0283105
2.2		5.80606		2.18333		1.15489		-0.262582		0.964509		-0.027843
2.22		5.80077		2.2026		1.15434		-0.26682		0.963352		-0.0273594
2.24		5.79539		2.22186		1.15379		-0.271078		0.96217		-0.0268596
2.26		5.78992		2.24109		1.15326		-0.275357		0.960963		-0.0263438
2.28		5.78437		2.2603		1.15274		-0.279657		0.959731		-0.0258118
2.3		5.77874		2.27948		1.15223		-0.283978		0.958473		-0.0252638
2.32		5.77301		2.29864		1.15173		-0.28832		0.95719		-0.0246996
2.34		5.7672		2.31777		1.15124		-0.292682		0.955882		-0.0241193
2.36		5.7613		2.33687		1.15076		-0.297066		0.954549		-0.0235229
2.38		5.75532		2.35595		1.1503		-0.30147		0.95319		-0.0229104
2.4		5.74925		2.375		1.14985		-0.305896		0.951806		-0.0222818
2.42		5.74308		2.39402		1.14941		-0.310342		0.950395		-0.0216376
2.44		5.73683		2.41301		1.14898		-0.314808		0.948951		-0.0209804
2.46		5.73049		2.43198		1.14857		-0.319294		0.947473		-0.0203106
2.48		5.72406		2.45091		1.14817		-0.3238		0.945961		-0.0196282
2.5		5.71754		2.46982		1.14778		-0.328326		0.944414		-0.0189332
2.52		5.71093		2.48869		1.14741		-0.332872		0.942833		-0.0182257
2.54		5.70422		2.50753		1.14706		-0.337437		0.941218		-0.0175056
2.56		5.69743		2.52634		1.14671		-0.342023		0.939568		-0.0167729
2.58		5.69054		2.54511		1.14639		-0.346629		0.937884		-0.0160276
2.6		5.68356		2.56385		1.14607		-0.351255		0.936166		-0.0152698
2.62		5.67649		2.58256		1.14577		-0.355901		0.934413		-0.0144994
2.64		5.66933		2.60123		1.14549		-0.360566		0.932626		-0.0137164
2.66		5.66207		2.61986		1.14523		-0.365252		0.930805		-0.0129208
2.68		5.65472		2.63846		1.14498		-0.369958		0.928949		-0.0121127
2.7		5.64727		2.65702		1.14474		-0.374683		0.927059		-0.0112919
2.72		5.63973		2.67554		1.14452		-0.379429		0.925135		-0.0104586
2.74		5.63209		2.69403		1.14432		-0.384194		0.923176		-0.00961272
2.76		5.62436		2.71247		1.14414		-0.38898		0.921184		-0.00875426
2.78		5.61653		2.73087		1.14397		-0.393785		0.919157		-0.00788321
2.8		5.60861		2.74924		1.14382		-0.39861		0.917095		-0.00699959
2.82		5.60059		2.76756		1.14369		-0.403455		0.914998		-0.00610384
2.84		5.59247		2.78584		1.14358		-0.408316		0.912859		-0.00519949
2.86		5.58426		2.80407		1.14349		-0.413192		0.910676		-0.00428727
2.88		5.57594		2.82226		1.14341		-0.418083		0.908449		-0.00336718
2.9		5.56753		2.84041		1.14335		-0.422989		0.906179		-0.00243923
2.92		5.55903		2.85851		1.14331		-0.42791		0.903864		-0.0015034
2.94		5.55042		2.87656		1.14329		-0.432846		0.901505		-0.000559699
2.96		5.54171		2.89457		1.14329		-0.437798		0.899103		0.000391869
2.98		5.53291		2.91253		1.14331		-0.442764		0.896656		0.00135131
3		5.524		2.93044		1.14334		-0.447746		0.894166		0.00231861
3.02		5.515		2.94829		1.1434		-0.452743		0.891632		0.00329379
3.04		5.50589		2.9661		1.14347		-0.457755		0.889054		0.00427683
3.06		5.49669		2.98386		1.14357		-0.462782		0.886432		0.00526775
3.08		5.48738		3.00156		1.14369		-0.467824		0.883766		0.00626653
3.1		5.47797		3.01921		1.14382		-0.472881		0.881056		0.00727319
3.12		5.46846		3.0368		1.14398		-0.477954		0.878302		0.00828771
3.14		5.45885		3.05434		1.14415		-0.483041		0.875505		0.0093101
3.16		5.44914		3.07182		1.14435		-0.488144		0.872663		0.0103404
3.18		5.43933		3.08924		1.14457		-0.493262		0.869778		0.0113785
3.2		5.42941		3.10661		1.1448		-0.498395		0.866849		0.0124245
3.22		5.41939		3.12392		1.14506		-0.503542		0.863875		0.0134779
3.24		5.40927		3.14117		1.14534		-0.508694		0.860852		0.0145333
3.26		5.39904		3.15835		1.14564		-0.513849		0.857779		0.0155893
3.28		5.38872		3.17548		1.14597		-0.519007		0.854656		0.0166457
3.3		5.37828		3.19254		1.14631		-0.524168		0.851482		0.0177027
3.32		5.36775		3.20954		1.14667		-0.529331		0.848258		0.0187602
3.34		5.35711		3.22647		1.14706		-0.534497		0.844984		0.0198183
3.36		5.34637		3.24333		1.14747		-0.539665		0.841659		0.0208769
3.38		5.33552		3.26013		1.1479		-0.544837		0.838284		0.021936
3.4		5.32458		3.27687		1.14835		-0.550011		0.834859		0.0229956
3.42		5.31352		3.29353		1.14882		-0.555187		0.831383		0.0240557
3.44		5.30237		3.31012		1.14931		-0.560367		0.827857		0.0251164
3.46		5.29111		3.32664		1.14982		-0.565549		0.82428		0.0261776
3.48		5.27975		3.34309		1.15035		-0.570733		0.820653		0.0272393
3.5		5.26828		3.35947		1.15091		-0.575921		0.816976		0.0283016
3.52		5.25671		3.37577		1.15149		-0.581111		0.813249		0.0293644
3.54		5.24504		3.392		1.15208		-0.586304		0.809471		0.0304277
3.56		5.23326		3.40815		1.1527		-0.591499		0.805643		0.0314915
3.58		5.22138		3.42422		1.15334		-0.596697		0.801764		0.0325559
3.6		5.20939		3.44022		1.15401		-0.601898		0.797835		0.0336207
3.62		5.1973		3.45614		1.15469		-0.607101		0.793856		0.0346857
3.64		5.18511		3.47197		1.15539		-0.612291		0.789829		0.0357435
3.66		5.17281		3.48773		1.15612		-0.617465		0.785756		0.0367913
3.68		5.16041		3.5034		1.15686		-0.622621		0.781637		0.0378292
3.7		5.1479		3.51899		1.15763		-0.627759		0.77747		0.0388571
3.72		5.1353		3.5345		1.15842		-0.632881		0.773258		0.039875
3.74		5.12259		3.54992		1.15923		-0.637985		0.768999		0.0408831
3.76		5.10978		3.56526		1.16005		-0.643071		0.764693		0.0418811
3.78		5.09687		3.58051		1.1609		-0.648141		0.760341		0.0428693
3.8		5.08385		3.59567		1.16177		-0.653193		0.755942		0.0438474
3.82		5.07074		3.61075		1.16266		-0.658227		0.751497		0.0448157
3.84		5.05752		3.62573		1.16356		-0.663245		0.747005		0.0457739
3.86		5.04421		3.64063		1.16449		-0.668245		0.742467		0.0467223
3.88		5.03079		3.65543		1.16543		-0.673227		0.737882		0.0476606
3.9		5.01728		3.67014		1.16639		-0.678193		0.733251		0.0485891
3.92		5.00367		3.68476		1.16737		-0.683141		0.728573		0.0495076
3.94		4.98995		3.69929		1.16837		-0.688072		0.723849		0.0504161
3.96		4.97614		3.71372		1.16939		-0.692985		0.719078		0.0513147
3.98		4.96223		3.72805		1.17043		-0.697881		0.714261		0.0522033
4		4.94823		3.74229		1.17148		-0.70276		0.709397		0.053082
4.02		4.93412		3.75642		1.17255		-0.707621		0.704487		0.0539506
4.04		4.91992		3.77046		1.17364		-0.71245		0.699543		0.0548014
4.06		4.90563		3.78441		1.17474		-0.717242		0.694571		0.0556309
4.08		4.89123		3.79825		1.17586		-0.721995		0.689571		0.056439
4.1		4.87675		3.81199		1.177		-0.726709		0.684543		0.0572258
4.12		4.86217		3.82563		1.17815		-0.731386		0.679487		0.0579913
4.14		4.84749		3.83917		1.17932		-0.736024		0.674403		0.0587354
4.16		4.83273		3.8526		1.1805		-0.740624		0.669291		0.0594582
4.18		4.81787		3.86594		1.1817		-0.745186		0.664151		0.0601597
4.2		4.80292		3.87917		1.18291		-0.74971		0.658982		0.0608398
4.22		4.78788		3.8923		1.18413		-0.754195		0.653786		0.0614986
4.24		4.77275		3.90532		1.18537		-0.758643		0.648562		0.062136
4.26		4.75753		3.91824		1.18661		-0.763052		0.643309		0.0627521
4.28		4.74223		3.93105		1.18788		-0.767422		0.638029		0.0633469
4.3		4.72684		3.94376		1.18915		-0.771755		0.63272		0.0639203
4.32		4.71136		3.95636		1.19043		-0.776049		0.627384		0.0644724
4.34		4.6958		3.96886		1.19173		-0.780305		0.622019		0.0650032
4.36		4.68015		3.98124		1.19303		-0.784523		0.616626		0.0655126
4.38		4.66441		3.99352		1.19435		-0.788703		0.611205		0.0660007
4.4		4.6486		4.00569		1.19567		-0.792844		0.605757		0.0664675
4.42		4.6327		4.01775		1.19701		-0.796948		0.60028		0.0669128
4.44		4.61672		4.0297		1.19835		-0.801006		0.594792		0.067332
4.46		4.60066		4.04154		1.1997		-0.805014		0.589303		0.0677222
4.48		4.58452		4.05327		1.20106		-0.808973		0.583813		0.0680831
4.5		4.5683		4.0649		1.20242		-0.812883		0.578323		0.068415
4.52		4.55201		4.07641		1.20379		-0.816743		0.572831		0.0687177
4.54		4.53563		4.08781		1.20517		-0.820554		0.567339		0.0689913
4.56		4.51918		4.0991		1.20655		-0.824315		0.561846		0.0692358
4.58		4.50266		4.11028		1.20794		-0.828027		0.556352		0.0694511
4.6		4.48606		4.12135		1.20933		-0.831689		0.550858		0.0696373
4.62		4.46939		4.13232		1.21073		-0.835302		0.545362		0.0697944
4.64		4.45265		4.14317		1.21212		-0.838865		0.539866		0.0699223
4.66		4.43584		4.15391		1.21352		-0.842379		0.534369		0.0700211
4.68		4.41896		4.16454		1.21492		-0.845843		0.528871		0.0700908
4.7		4.40201		4.17507		1.21633		-0.849258		0.523372		0.0701314
4.72		4.38499		4.18548		1.21773		-0.852624		0.517873		0.0701428
4.74		4.3679		4.19578		1.21913		-0.85594		0.512372		0.0701251
4.76		4.35075		4.20597		1.22053		-0.859206		0.506871		0.0700783
4.78		4.33353		4.21606		1.22193		-0.862423		0.501369		0.0700023
4.8		4.31625		4.22603		1.22333		-0.865591		0.495866		0.0698972
4.82		4.29891		4.23589		1.22473		-0.868709		0.490363		0.069763
4.84		4.28151		4.24564		1.22612		-0.871779		0.484871		0.0695989
4.86		4.26404		4.25529		1.22751		-0.8748		0.479401		0.0694042
4.88		4.24651		4.26482		1.2289		-0.877774		0.473954		0.0691789
4.9		4.22893		4.27424		1.23028		-0.880701		0.468529		0.068923
4.92		4.21129		4.28356		1.23166		-0.883579		0.463126		0.0686366
4.94		4.19359		4.29277		1.23303		-0.88641		0.457746		0.0683196
4.96		4.17583		4.30187		1.23439		-0.889193		0.452388		0.067972
4.98		4.15802		4.31087		1.23574		-0.891928		0.447052		0.0675938
5		4.14015		4.31975		1.23709		-0.894616		0.441739		0.067185
5.02		4.12223		4.32853		1.23843		-0.897255		0.436448		0.0667457
5.04		4.10426		4.33721		1.23976		-0.899847		0.431179		0.0662757
5.06		4.08624		4.34578		1.24108		-0.902391		0.425933		0.0657752
5.08		4.06817		4.35425		1.24239		-0.904887		0.420709		0.0652441
5.1		4.05005		4.36261		1.24369		-0.907336		0.415507		0.0646825
5.12		4.03187		4.37087		1.24498		-0.909737		0.410328		0.0640902
5.14		4.01366		4.37902		1.24626		-0.91209		0.405171		0.0634674
5.16		3.99539		4.38708		1.24752		-0.914395		0.400036		0.062814
5.18		3.97708		4.39503		1.24877		-0.916652		0.394924		0.06213
5.2		3.95873		4.40287		1.25		-0.918862		0.389834		0.0614154
5.22		3.94033		4.41062		1.25122		-0.921024		0.384766		0.0606703
5.24		3.92188		4.41826		1.25243		-0.923142		0.379727		0.0598964
5.26		3.9034		4.42581		1.25362		-0.925222		0.374722		0.059096
5.28		3.88488		4.43325		1.25479		-0.927263		0.369751		0.058269
5.3		3.86631		4.4406		1.25595		-0.929265		0.364815		0.0574155
5.32		3.84771		4.44785		1.25709		-0.931228		0.359914		0.0565354
5.34		3.82906		4.455		1.25821		-0.933153		0.355047		0.0556287
5.36		3.81038		4.46205		1.25931		-0.935039		0.350215		0.0546955
5.38		3.79166		4.469		1.2604		-0.936886		0.345417		0.0537358
5.4		3.7729		4.47586		1.26146		-0.938694		0.340654		0.0527494
5.42		3.75411		4.48263		1.26251		-0.940464		0.335926		0.0517366
5.44		3.73529		4.4893		1.26353		-0.942195		0.331232		0.0506971
5.46		3.71643		4.49588		1.26454		-0.943887		0.326572		0.0496311
5.48		3.69753		4.50237		1.26552		-0.945541		0.321947		0.0485386
5.5		3.6786		4.50876		1.26648		-0.947156		0.317357		0.0474195
5.52		3.65965		4.51506		1.26742		-0.948732		0.312801		0.0462738
5.54		3.64066		4.52127		1.26833		-0.950269		0.30828		0.0451016
5.56		3.62163		4.52739		1.26922		-0.951768		0.303794		0.0439028
5.58		3.60258		4.53342		1.27008		-0.953227		0.299342		0.0426775
5.6		3.58351		4.53937		1.27093		-0.954649		0.294924		0.0414256
5.62		3.5644		4.54522		1.27174		-0.956031		0.290541		0.0401471
5.64		3.54526		4.55099		1.27253		-0.957378		0.286194		0.038845
5.66		3.5261		4.55667		1.2733		-0.958697		0.281885		0.0375237
5.68		3.50692		4.56226		1.27403		-0.959986		0.277613		0.0361833
5.7		3.4877		4.56777		1.27474		-0.961247		0.273379		0.0348237
5.72		3.46847		4.5732		1.27543		-0.962479		0.269183		0.033445
5.74		3.44921		4.57854		1.27608		-0.963682		0.265024		0.0320472
5.76		3.42992		4.5838		1.27671		-0.964856		0.260903		0.0306302
5.78		3.41061		4.58898		1.27731		-0.966001		0.25682		0.0291941
5.8		3.39128		4.59407		1.27787		-0.967118		0.252774		0.0277389
5.82		3.37193		4.59909		1.27841		-0.968205		0.248767		0.0262645
5.84		3.35255		4.60402		1.27893		-0.969264		0.244796		0.024771
5.86		3.33316		4.60888		1.27941		-0.970293		0.240864		0.0232584
5.88		3.31374		4.61366		1.27986		-0.971294		0.236969		0.0217266
5.9		3.29431		4.61836		1.28027		-0.972266		0.233112		0.0201757
5.92		3.27485		4.62298		1.28066		-0.973209		0.229293		0.0186057
5.94		3.25538		4.62753		1.28102		-0.974123		0.225511		0.0170166
5.96		3.23589		4.632		1.28134		-0.975008		0.221767		0.0154083
5.98		3.21638		4.6364		1.28163		-0.975865		0.21806		0.0137809
6		3.19685		4.64073		1.28189		-0.976692		0.214392		0.0121343
6.02		3.17731		4.64498		1.28212		-0.977491		0.210761		0.0104686
6.04		3.15775		4.64916		1.28231		-0.978263		0.207167		0.00878691
6.06		3.13818		4.65326		1.28247		-0.979015		0.203609		0.00709543
6.08		3.11859		4.6573		1.2826		-0.979746		0.200088		0.00539439
6.1		3.09899		4.66127		1.28269		-0.980456		0.196603		0.00368379
6.12		3.07937		4.66517		1.28274		-0.981146		0.193154		0.00196364
6.14		3.05974		4.66899		1.28277		-0.981815		0.189741		0.000233933
6.16		3.0401		4.67276		1.28275		-0.982463		0.186364		-0.00150533
6.18		3.02045		4.67645		1.28271		-0.983091		0.183023		-0.00325415
