arc_length_s	gamma_x(s)	gamma_y(s)	gamma_z(s)	v_x(s)	v_y(s)	v_z(s)
0		6		0		1.2		0.006211		1.00101		-0.00358632
0.02		6.00012		0.0200202		1.19993		0.00618629		1.00101		-0.00359123
0.04		6.00025		0.0400404		1.19986		0.00611216		1.00101		-0.00360599
0.06		6.00037		0.0600604		1.19978		0.00598862		1.001		-0.00363058
0.08		6.00049		0.0800803		1.19971		0.00581566		1.00099		-0.00366501
0.1		6.0006		0.1001		1.19964		0.00559328		1.00098		-0.00370927
0.12		6.00071		0.120119		1.19956		0.00532148		1.00096		-0.00376337
0.14		6.00081		0.140138		1.19949		0.00500026		1.00094		-0.00382731
0.16		6.00091		0.160157		1.19941		0.00462963		1.00092		-0.00390108
0.18		6.001		0.180175		1.19933		0.00420958		1.0009		-0.00398469
0.2		6.00108		0.200193		1.19925		0.00374011		1.00087		-0.00407813
0.22		6.00115		0.22021		1.19917		0.00322123		1.00084		-0.00418141
0.24		6.00121		0.240226		1.19908		0.00265292		1.00081		-0.00429453
0.26		6.00125		0.260242		1.199		0.0020352		1.00077		-0.00441749
0.28		6.00129		0.280257		1.19891		0.00136806		1.00073		-0.00455028
0.3		6.00131		0.300272		1.19881		0.000651506		1.00069		-0.0046929
0.32		6.00131		0.320285		1.19872		-0.000114469		1.00065		-0.00484537
0.34		6.0013		0.340298		1.19862		-0.000929861		1.0006		-0.00500767
0.36		6.00128		0.360309		1.19852		-0.00179467		1.00055		-0.0051798
0.38		6.00123		0.38032		1.19841		-0.0027089		1.0005		-0.00536177
0.4		6.00117		0.400329		1.1983		-0.00367254		1.00044		-0.00555358
0.42		6.00108		0.420337		1.19819		-0.00468561		1.00039		-0.00575523
0.44		6.00098		0.440345		1.19807		-0.00574809		1.00033		-0.00596671
0.46		6.00085		0.46035		1.19795		-0.00685999		1.00026		-0.00618803
0.48		6.0007		0.480355		1.19783		-0.0080213		1.0002		-0.00641918
0.5		6.00053		0.500358		1.19769		-0.00923204		1.00013		-0.00666017
0.52		6.00033		0.52036		1.19756		-0.0104922		1.00005		-0.006911
0.54		6.00011		0.54036		1.19742		-0.0118018		0.999979		-0.00717166
0.56		5.99986		0.560359		1.19727		-0.0131607		0.999901		-0.00744216
0.58		5.99958		0.580356		1.19712		-0.0145691		0.99982		-0.00772249
0.6		5.99928		0.600352		1.19696		-0.016027		0.999736		-0.00801267
0.62		5.99894		0.620346		1.1968		-0.0175342		0.99965		-0.00831267
0.64		5.99858		0.640338		1.19663		-0.0190909		0.999561		-0.00862252
0.66		5.99818		0.660328		1.19645		-0.0206969		0.999469		-0.0089422
0.68		5.99775		0.680317		1.19627		-0.0223524		0.999374		-0.00927172
0.7		5.99729		0.700303		1.19608		-0.0240573		0.999276		-0.00961107
0.72		5.99679		0.720288		1.19589		-0.0258117		0.999175		-0.00996026
0.74		5.99625		0.74027		1.19569		-0.0276154		0.999072		-0.0103193
0.76		5.99568		0.760251		1.19548		-0.0294686		0.998966		-0.0106881
0.78		5.99507		0.780229		1.19526		-0.0313712		0.998857		-0.0110668
0.8		5.99443		0.800205		1.19503		-0.0333232		0.998745		-0.0114554
0.82		5.99374		0.820179		1.1948		-0.0353246		0.99863		-0.0118538
0.84		5.99301		0.84015		1.19456		-0.0373754		0.998512		-0.012262
0.86		5.99224		0.860119		1.19431		-0.0394757		0.998392		-0.01268
0.88		5.99143		0.880086		1.19405		-0.0416253		0.998269		-0.0131079
0.9		5.99058		0.90005		1.19378		-0.0438244		0.998142		-0.0135456
0.92		5.98968		0.920011		1.19351		-0.0460729		0.998013		-0.0139932
0.94		5.98874		0.93997		1.19322		-0.0483709		0.997882		-0.0144505
0.96		5.98775		0.959927		1.19293		-0.0507182		0.997747		-0.0149178
0.98		5.98671		0.97988		1.19263		-0.053115		0.99761		-0.0153948
1		5.98562		0.999831		1.19232		-0.0555611		0.997469		-0.0158817
1.02		5.98448		1.01978		1.19199		-0.0580567		0.997326		-0.0163785
1.04		5.9833		1.03972		1.19166		-0.0606017		0.99718		-0.016885
1.06		5.98206		1.05967		1.19132		-0.0631962		0.997032		-0.0174014
1.08		5.98077		1.07961		1.19096		-0.06584		0.99688		-0.0179277
1.1		5.97943		1.09954		1.1906		-0.0685333		0.996725		-0.0184638
1.12		5.97803		1.11947		1.19023		-0.071276		0.996568		-0.0190097
1.14		5.97657		1.1394		1.18984		-0.0740681		0.996408		-0.0195654
1.16		5.97506		1.15933		1.18944		-0.0769096		0.996245		-0.020131
1.18		5.9735		1.17925		1.18903		-0.0798005		0.996079		-0.0207065
1.2		5.97187		1.19917		1.18861		-0.0827393		0.99591		-0.0212896
1.22		5.97019		1.21909		1.18818		-0.085709		0.995725		-0.0218564
1.24		5.96844		1.239		1.18774		-0.0887048		0.995522		-0.0224003
1.26		5.96664		1.25891		1.18729		-0.0917266		0.995301		-0.0229213
1.28		5.96477		1.27881		1.18682		-0.0947746		0.995062		-0.0234193
1.3		5.96285		1.29871		1.18635		-0.0978486		0.994805		-0.0238944
1.32		5.96086		1.31861		1.18587		-0.100949		0.99453		-0.0243466
1.34		5.95881		1.33849		1.18538		-0.104075		0.994237		-0.0247759
1.36		5.9567		1.35838		1.18488		-0.107227		0.993925		-0.0251822
1.38		5.95452		1.37825		1.18437		-0.110406		0.993596		-0.0255656
1.4		5.95228		1.39812		1.18385		-0.11361		0.993248		-0.025926
1.42		5.94998		1.41798		1.18333		-0.116841		0.992882		-0.0262636
1.44		5.94761		1.43783		1.1828		-0.120098		0.992498		-0.0265782
1.46		5.94517		1.45768		1.18227		-0.123381		0.992096		-0.0268698
1.48		5.94267		1.47752		1.18173		-0.12669		0.991676		-0.0271386
1.5		5.9401		1.49735		1.18118		-0.130025		0.991237		-0.0273844
1.52		5.93747		1.51717		1.18063		-0.133386		0.990781		-0.0276073
1.54		5.93477		1.53698		1.18008		-0.136773		0.990306		-0.0278072
1.56		5.932		1.55678		1.17952		-0.140187		0.989813		-0.0279842
1.58		5.92916		1.57657		1.17896		-0.143626		0.989302		-0.0281383
1.6		5.92625		1.59635		1.1784		-0.147092		0.988774		-0.0282695
1.62		5.92328		1.61612		1.17783		-0.150583		0.988226		-0.0283777
1.64		5.92023		1.63588		1.17726		-0.154101		0.987661		-0.028463
1.66		5.91711		1.65563		1.17669		-0.157645		0.987078		-0.0285254
1.68		5.91392		1.67536		1.17612		-0.161215		0.986476		-0.0285648
1.7		5.91066		1.69509		1.17555		-0.164811		0.985857		-0.0285813
1.72		5.90733		1.7148		1.17498		-0.168433		0.985219		-0.0285749
1.74		5.90393		1.7345		1.17441		-0.172081		0.984563		-0.0285455
1.76		5.90045		1.75418		1.17384		-0.175756		0.983889		-0.0284932
1.78		5.8969		1.77385		1.17327		-0.179456		0.983197		-0.028418
1.8		5.89327		1.79351		1.1727		-0.183183		0.982487		-0.0283199
1.82		5.88957		1.81315		1.17213		-0.186936		0.981758		-0.0281988
1.84		5.88579		1.83278		1.17157		-0.190714		0.981012		-0.0280548
1.86		5.88194		1.85239		1.17101		-0.194519		0.980247		-0.0278878
1.88		5.87801		1.87199		1.17046		-0.19835		0.979465		-0.027698
1.9		5.87401		1.89157		1.1699		-0.202207		0.978664		-0.0274852
1.92		5.86992		1.91113		1.16936		-0.20609		0.977845		-0.0272494
1.94		5.86576		1.93068		1.16881		-0.21		0.977008		-0.0269908
1.96		5.86152		1.95021		1.16828		-0.213935		0.976153		-0.0267092
1.98		5.8572		1.96973		1.16775		-0.217897		0.975279		-0.0264047
2		5.85281		1.98923		1.16722		-0.221884		0.974388		-0.0260772
2.02		5.84833		2.0087		1.1667		-0.225898		0.973478		-0.0257268
2.04		5.84377		2.02816		1.16619		-0.229938		0.97255		-0.0253535
2.06		5.83913		2.04761		1.16569		-0.234003		0.971605		-0.0249573
2.08		5.83441		2.06703		1.16519		-0.238095		0.970641		-0.0245381
2.1		5.82961		2.08643		1.16471		-0.242214		0.969659		-0.024096
2.12		5.82472		2.10582		1.16423		-0.246358		0.968658		-0.023631
2.14		5.81975		2.12518		1.16376		-0.250528		0.96764		-0.023143
2.16		5.8147		2.14452		1.16331		-0.254724		0.966604		-0.0226321
2.18		5.80956		2.16384		1.16286		-0.258947		0.965549		-0.0220983
2.2		5.80434		2.18314		1.16242		-0.263196		0.964476		-0.0215415
2.22		5.79904		2.20242		1.162		-0.26747		0.963386		-0.0209618
2.24		5.79364		2.22168		1.16158		-0.271771		0.962277		-0.0203592
2.26		5.78817		2.24091		1.16118		-0.276098		0.96115		-0.0197337
2.28		5.7826		2.26012		1.16079		-0.280451		0.960004		-0.0190852
2.3		5.77695		2.27931		1.16042		-0.28483		0.958841		-0.0184138
2.32		5.77121		2.29848		1.16006		-0.289235		0.95766		-0.0177195
2.34		5.76538		2.31762		1.15971		-0.293666		0.95646		-0.0170022
2.36		5.75946		2.33674		1.15938		-0.298124		0.955242		-0.016262
2.38		5.75345		2.35583		1.15906		-0.302607		0.954006		-0.0154989
2.4		5.74735		2.3749		1.15876		-0.307114		0.952745		-0.0147169
2.42		5.74117		2.39394		1.15847		-0.311636		0.951439		-0.0139273
2.44		5.73489		2.41295		1.1582		-0.316172		0.950088		-0.0131304
2.46		5.72852		2.43194		1.15795		-0.320723		0.948691		-0.0123264
2.48		5.72206		2.4509		1.15771		-0.325288		0.947248		-0.0115152
2.5		5.71551		2.46983		1.15749		-0.329868		0.945759		-0.0106969
2.52		5.70887		2.48873		1.15728		-0.334463		0.944225		-0.00987132
2.54		5.70213		2.5076		1.15709		-0.339073		0.942645		-0.00903863
2.56		5.6953		2.52644		1.15692		-0.343697		0.94102		-0.00819876
2.58		5.68838		2.54524		1.15676		-0.348336		0.939348		-0.00735172
2.6		5.68137		2.56401		1.15662		-0.352989		0.937631		-0.00649752
2.62		5.67426		2.58274		1.1565		-0.357657		0.935869		-0.00563614
2.64		5.66706		2.60144		1.1564		-0.362339		0.93406		-0.0047676
2.66		5.65977		2.62011		1.15631		-0.367037		0.932206		-0.00389188
2.68		5.65238		2.63873		1.15624		-0.371749		0.930307		-0.003009
2.7		5.6449		2.65732		1.15619		-0.376475		0.928361		-0.00211894
2.72		5.63732		2.67587		1.15616		-0.381216		0.92637		-0.00122172
2.74		5.62965		2.69437		1.15614		-0.385972		0.924333		-0.000317328
2.76		5.62188		2.71284		1.15615		-0.390742		0.922251		0.000594234
2.78		5.61402		2.73126		1.15617		-0.395528		0.920123		0.00151297
2.8		5.60606		2.74964		1.15621		-0.400327		0.917949		0.00243887
2.82		5.59801		2.76798		1.15626		-0.405142		0.915729		0.00337194
2.84		5.58986		2.78627		1.15634		-0.409971		0.913464		0.00431218
2.86		5.58161		2.80452		1.15644		-0.414814		0.911153		0.00525959
2.88		5.57326		2.82272		1.15655		-0.419672		0.908797		0.00621417
2.9		5.56482		2.84087		1.15669		-0.424545		0.906395		0.00717591
2.92		5.55628		2.85897		1.15684		-0.429433		0.903947		0.00814483
2.94		5.54764		2.87703		1.15701		-0.434335		0.901453		0.00912092
2.96		5.53891		2.89503		1.1572		-0.439252		0.898914		0.0101042
2.98		5.53007		2.91298		1.15742		-0.444183		0.896329		0.0110946
3		5.52114		2.93088		1.15765		-0.449129		0.893698		0.0120922
3.02		5.51211		2.94873		1.1579		-0.45409		0.891022		0.013097
3.04		5.50298		2.96652		1.15817		-0.459065		0.8883		0.0141089
3.06		5.49375		2.98426		1.15846		-0.464055		0.885532		0.015128
3.08		5.48441		3.00195		1.15878		-0.469059		0.882719		0.0161543
3.1		5.47498		3.01957		1.15911		-0.474079		0.87986		0.0171877
3.12		5.46545		3.03714		1.15946		-0.479112		0.876955		0.0182283
3.14		5.45582		3.05465		1.15984		-0.484161		0.874004		0.0192761
3.16		5.44608		3.0721		1.16024		-0.489224		0.871008		0.0203311
3.18		5.43625		3.08949		1.16065		-0.494302		0.867967		0.0213932
3.2		5.42631		3.10682		1.16109		-0.499394		0.864879		0.0224625
3.22		5.41627		3.12408		1.16155		-0.504501		0.861746		0.0235389
3.24		5.40613		3.14129		1.16203		-0.509623		0.858567		0.0246226
3.26		5.39589		3.15843		1.16254		-0.514759		0.855342		0.0257134
3.28		5.38554		3.1755		1.16306		-0.51991		0.852072		0.0268113
3.3		5.37509		3.19251		1.16361		-0.525075		0.848756		0.0279165
3.32		5.36454		3.20945		1.16418		-0.530256		0.845395		0.0290288
3.34		5.35388		3.22632		1.16477		-0.53545		0.841987		0.0301483
3.36		5.34312		3.24313		1.16538		-0.54066		0.838534		0.0312749
3.38		5.33226		3.25987		1.16602		-0.545884		0.835036		0.0324087
3.4		5.32129		3.27653		1.16668		-0.551123		0.831492		0.0335497
3.42		5.31021		3.29313		1.16736		-0.556376		0.827901		0.0346979
3.44		5.29903		3.30965		1.16807		-0.561644		0.824266		0.0358532
3.46		5.28774		3.3261		1.1688		-0.566926		0.820584		0.0370157
3.48		5.27635		3.34247		1.16955		-0.572224		0.816857		0.0381854
3.5		5.26486		3.35877		1.17032		-0.577536		0.813085		0.0393622
3.52		5.25325		3.37499		1.17112		-0.582862		0.809266		0.0405462
3.54		5.24154		3.39114		1.17195		-0.588203		0.805402		0.0417374
3.56		5.22972		3.40721		1.17279		-0.593559		0.801492		0.0429357
3.58		5.2178		3.4232		1.17366		-0.598929		0.797537		0.0441411
3.6		5.20577		3.43911		1.17456		-0.604285		0.793545		0.0453376
3.62		5.19363		3.45494		1.17548		-0.609605		0.789522		0.0465136
3.64		5.18138		3.47069		1.17642		-0.61489		0.78547		0.0476691
3.66		5.16903		3.48636		1.17738		-0.620139		0.781387		0.0488042
3.68		5.15658		3.50195		1.17837		-0.625354		0.777274		0.0499188
3.7		5.14402		3.51745		1.17938		-0.630532		0.773131		0.051013
3.72		5.13136		3.53287		1.18041		-0.635676		0.768958		0.0520867
3.74		5.11859		3.54821		1.18146		-0.640784		0.764754		0.05314
3.76		5.10572		3.56346		1.18254		-0.645856		0.76052		0.0541728
3.78		5.09276		3.57863		1.18363		-0.650893		0.756256		0.0551851
3.8		5.07969		3.59371		1.18474		-0.655895		0.751962		0.056177
3.82		5.06652		3.60871		1.18588		-0.660862		0.747637		0.0571485
3.84		5.05326		3.62362		1.18703		-0.665793		0.743282		0.0580995
3.86		5.03989		3.63844		1.1882		-0.670689		0.738897		0.05903
3.88		5.02643		3.65317		1.18939		-0.675549		0.734482		0.0599401
3.9		5.01287		3.66782		1.1906		-0.680374		0.730037		0.0608297
3.92		4.99921		3.68237		1.19182		-0.685164		0.725561		0.0616989
3.94		4.98546		3.69684		1.19307		-0.689918		0.721055		0.0625476
3.96		4.97162		3.71122		1.19433		-0.694637		0.716519		0.0633759
3.98		4.95768		3.7255		1.1956		-0.69932		0.711952		0.0641837
4		4.94364		3.73969		1.19689		-0.703968		0.707356		0.0649711
4.02		4.92952		3.75379		1.1982		-0.708581		0.702729		0.065738
4.04		4.9153		3.7678		1.19952		-0.713158		0.698072		0.0664845
4.06		4.90099		3.78172		1.20086		-0.7177		0.693385		0.0672105
4.08		4.88659		3.79554		1.20221		-0.722207		0.688667		0.067916
4.1		4.8721		3.80926		1.20358		-0.726678		0.68392		0.0686011
4.12		4.85753		3.82289		1.20495		-0.731113		0.679142		0.0692657
4.14		4.84286		3.83643		1.20635		-0.735514		0.674333		0.0699099
4.16		4.82811		3.84987		1.20775		-0.739879		0.669495		0.0705336
4.18		4.81327		3.86321		1.20917		-0.744209		0.664626		0.0711369
4.2		4.79834		3.87645		1.2106		-0.748503		0.659728		0.0717197
4.22		4.78333		3.8896		1.21204		-0.752762		0.654799		0.0722821
4.24		4.76823		3.90264		1.21349		-0.756985		0.649839		0.072824
4.26		4.75305		3.91559		1.21495		-0.761173		0.64485		0.0733455
4.28		4.73778		3.92844		1.21642		-0.765326		0.63983		0.0738465
4.3		4.72243		3.94118		1.2179		-0.769444		0.63478		0.074327
4.32		4.707		3.95383		1.21939		-0.773526		0.6297		0.0747871
4.34		4.69149		3.96637		1.22089		-0.777572		0.624589		0.0752267
4.36		4.6759		3.97881		1.2224		-0.781583		0.619449		0.0756459
4.38		4.66023		3.99115		1.22392		-0.785559		0.614278		0.0760446
4.4		4.64448		4.00338		1.22544		-0.7895		0.609077		0.0764229
4.42		4.62865		4.01551		1.22698		-0.793405		0.603846		0.0767807
4.44		4.61274		4.02754		1.22852		-0.797275		0.598584		0.0771181
4.46		4.59676		4.03946		1.23006		-0.801109		0.593292		0.077435
4.48		4.5807		4.05127		1.23161		-0.804908		0.58797		0.0777315
4.5		4.56456		4.06297		1.23317		-0.808672		0.582618		0.0780075
4.52		4.54835		4.07457		1.23473		-0.8124		0.577236		0.078263
4.54		4.53207		4.08606		1.2363		-0.816093		0.571823		0.0784981
4.56		4.51571		4.09745		1.23787		-0.81975		0.56638		0.0787128
4.58		4.49928		4.10872		1.23945		-0.823372		0.560907		0.078907
4.6		4.48277		4.11988		1.24103		-0.826959		0.555404		0.0790807
4.62		4.4662		4.13093		1.24261		-0.83051		0.54987		0.079234
4.64		4.44955		4.14188		1.2442		-0.834026		0.544306		0.0793668
4.66		4.43284		4.15271		1.24579		-0.837507		0.538712		0.0794792
4.68		4.41605		4.16342		1.24738		-0.840952		0.533088		0.0795711
4.7		4.3992		4.17403		1.24897		-0.844362		0.527433		0.0796426
4.72		4.38228		4.18452		1.25056		-0.847736		0.521749		0.0796936
4.74		4.36529		4.1949		1.25216		-0.851075		0.516034		0.0797241
4.76		4.34824		4.20516		1.25375		-0.854379		0.510289		0.0797342
4.78		4.33112		4.21531		1.25535		-0.857646		0.50452		0.0797229
4.8		4.31393		4.22534		1.25694		-0.860873		0.498775		0.0796836
4.82		4.29668		4.23526		1.25853		-0.864057		0.493064		0.0796147
4.84		4.27937		4.24507		1.26013		-0.867198		0.487387		0.0795163
4.86		4.26199		4.25476		1.26171		-0.870298		0.481744		0.0793885
4.88		4.24456		4.26434		1.2633		-0.873355		0.476134		0.0792312
4.9		4.22706		4.2738		1.26488		-0.876369		0.470559		0.0790444
4.92		4.2095		4.28316		1.26646		-0.879341		0.465017		0.0788281
4.94		4.19189		4.2924		1.26804		-0.882271		0.459509		0.0785824
4.96		4.17421		4.30154		1.26961		-0.885159		0.454035		0.0783071
4.98		4.15648		4.31057		1.27117		-0.888004		0.448594		0.0780024
5		4.13869		4.31948		1.27273		-0.890807		0.443188		0.0776682
5.02		4.12085		4.32829		1.27427		-0.893568		0.437815		0.0773045
5.04		4.10295		4.337		1.27582		-0.896286		0.432476		0.0769114
5.06		4.085		4.34559		1.27735		-0.898962		0.427171		0.0764887
5.08		4.06699		4.35408		1.27888		-0.901595		0.4219		0.0760366
5.1		4.04893		4.36247		1.28039		-0.904187		0.416662		0.075555
5.12		4.03082		4.37075		1.2819		-0.906736		0.411459		0.0750439
5.14		4.01266		4.37893		1.28339		-0.909242		0.406289		0.0745033
5.16		3.99446		4.387		1.28488		-0.911706		0.401153		0.0739332
5.18		3.9762		4.39497		1.28635		-0.914128		0.396051		0.0733337
5.2		3.95789		4.40284		1.28781		-0.916508		0.390982		0.0727047
5.22		3.93954		4.41061		1.28926		-0.918845		0.385948		0.0720462
5.24		3.92114		4.41828		1.29069		-0.92114		0.380947		0.0713582
5.26		3.90269		4.42585		1.29211		-0.923393		0.37598		0.0706407
5.28		3.8842		4.43332		1.29352		-0.925603		0.371047		0.0698938
5.3		3.86567		4.44069		1.29491		-0.927771		0.366148		0.0691174
5.32		3.84709		4.44797		1.29628		-0.929896		0.361282		0.0683115
5.34		3.82847		4.45515		1.29764		-0.931979		0.356451		0.0674761
5.36		3.80981		4.46223		1.29898		-0.93402		0.351653		0.0666112
5.38		3.79111		4.46921		1.30031		-0.936019		0.346889		0.0657169
5.4		3.77237		4.4761		1.30161		-0.937975		0.342159		0.064793
5.42		3.75359		4.4829		1.3029		-0.939889		0.337463		0.0638397
5.44		3.73478		4.4896		1.30416		-0.94176		0.3328		0.0628569
5.46		3.71592		4.49621		1.30541		-0.943589		0.328171		0.0618446
5.48		3.69703		4.50273		1.30664		-0.945376		0.323576		0.0608029
5.5		3.67811		4.50915		1.30784		-0.947121		0.319015		0.0597316
5.52		3.65915		4.51549		1.30903		-0.948823		0.314488		0.0586309
5.54		3.64016		4.52173		1.31019		-0.950483		0.309995		0.0575007
5.56		3.62113		4.52789		1.31133		-0.9521		0.305535		0.056341
5.58		3.60207		4.53395		1.31244		-0.953675		0.301109		0.0551519
5.6		3.58298		4.53993		1.31353		-0.955208		0.296717		0.0539332
5.62		3.56386		4.54582		1.3146		-0.956699		0.292359		0.0526851
5.64		3.54472		4.55163		1.31564		-0.958147		0.288035		0.0514075
5.66		3.52554		4.55735		1.31665		-0.959553		0.283744		0.0501004
5.68		3.50633		4.56298		1.31764		-0.960916		0.279488		0.0487638
5.7		3.4871		4.56853		1.3186		-0.962237		0.275265		0.0473977
5.72		3.46784		4.57399		1.31954		-0.963516		0.271076		0.0460022
5.74		3.44856		4.57937		1.32044		-0.964753		0.26692		0.0445772
5.76		3.42925		4.58467		1.32132		-0.965947		0.262799		0.0431227
5.78		3.40992		4.58988		1.32217		-0.967098		0.258711		0.0416387
5.8		3.39057		4.59501		1.32299		-0.968208		0.254658		0.0401252
5.82		3.3712		4.60007		1.32377		-0.969275		0.250638		0.0385823
5.84		3.3518		4.60504		1.32453		-0.9703		0.246652		0.0370099
5.86		3.33238		4.60993		1.32525		-0.971282		0.242699		0.0354079
5.88		3.31295		4.61475		1.32595		-0.972222		0.238781		0.0337766
5.9		3.2935		4.61948		1.32661		-0.97312		0.234896		0.0321157
5.92		3.27402		4.62414		1.32723		-0.973975		0.231045		0.0304253
5.94		3.25454		4.62873		1.32782		-0.974789		0.227228		0.0287055
5.96		3.23503		4.63323		1.32838		-0.975559		0.223445		0.0269562
5.98		3.21551		4.63766		1.3289		-0.976297		0.219696		0.0251866
6		3.19598		4.64202		1.32939		-0.97702		0.215981		0.023415
6.02		3.17643		4.6463		1.32984		-0.977729		0.2123		0.0216418
6.04		3.15687		4.65051		1.33025		-0.978423		0.208653		0.0198671
6.06		3.1373		4.65465		1.33063		-0.979104		0.20504		0.0180908
6.08		3.11771		4.65872		1.33098		-0.97977		0.201462		0.016313
6.1		3.09811		4.66271		1.33128		-0.980422		0.197917		0.0145336
6.12		3.07849		4.66663		1.33156		-0.981059		0.194407		0.0127527
6.14		3.05886		4.67049		1.33179		-0.981683		0.190931		0.0109702
6.16		3.03922		4.67427		1.332		-0.982292		0.187489		0.00918616
6.18		3.01957		4.67799		1.33216		-0.982887		0.184082		0.00740056
6.2		2.99991		4.68163		1.33229		-0.983468		0.180708		0.00561341
